GiD Post Result File 2.0
Result "Pressure" "Structural_Benchmark_3" 1 Vector OnNodes
Values
688  0.15762585E+05  0.19937788E+06
664  0.33017760E+05  0.19725574E+06
637  0.49992461E+05  0.19365111E+06
604  0.66687225E+05  0.18855454E+06
569  0.82913643E+05  0.18200365E+06
533  0.98364922E+05  0.17413886E+06
501  0.11314822E+06  0.16491658E+06
465  0.12701703E+06  0.15448843E+06
441  0.14005825E+06  0.14277145E+06
414  0.15194433E+06  0.13004968E+06
388  0.16261934E+06  0.11642572E+06
359  0.17217340E+06  0.10176601E+06
324  0.18037641E+06  0.86396482E+05
293  0.18721273E+06  0.70366146E+05
274  0.19260683E+06  0.53875872E+05
255  0.19657344E+06  0.36863023E+05
241  0.19903382E+06  0.19635157E+05
227  0.19998713E+06  0.22688636E+04
End Values
