GiD Post Result File 2.0
Result "Pressure" "Structural_Benchmark_3" 1 Vector OnNodes
Values
340  0.37137789E-01  0.99931015E+00
328  0.10814449E+00  0.99413519E+00
318  0.17868400E+00  0.98390651E+00
304  0.24830229E+00  0.96868260E+00
290  0.31671822E+00  0.94851967E+00
277  0.38332128E+00  0.92361507E+00
266  0.44814748E+00  0.89395964E+00
254  0.51060891E+00  0.85981308E+00
242  0.57060589E+00  0.82122403E+00
229  0.62762461E+00  0.77851612E+00
216  0.68155226E+00  0.73176944E+00
204  0.73176944E+00  0.68155226E+00
192  0.77851612E+00  0.62762461E+00
181  0.82122403E+00  0.57060589E+00
171  0.85981308E+00  0.51060891E+00
161  0.89391272E+00  0.44824105E+00
152  0.92364938E+00  0.38323859E+00
142  0.94851967E+00  0.31671822E+00
134  0.96868260E+00  0.24830229E+00
127  0.98390577E+00  0.17868811E+00
122  0.99413519E+00  0.10814449E+00
118  0.99931019E+00  0.37136922E-01
End Values
